//DATASET,
//created,Wed, 03 Feb 2021 13:28:32 GMT

//TRACE,Optical Spectrum,Input 1 (Run 1) 
//Parameterized
#Frequency,Power
#(THz),(dBm)
191.6,1.0223
191.8,1.8196
191.9,2.1743
192,2.4858
192.1,2.7447
192.2,2.9428
192.4,3.1394
192.5,3.1381
192.6,3.0772
192.7,2.9692
192.8,2.8288
192.9,2.6759
193,2.5317
193.1,2.4175
193.2,2.3535
193.3,2.354
193.4,2.4277
193.5,2.571
193.6,2.7755
193.7,3.0198
193.8,3.2766
193.9,3.5129
194,3.6968
194.1,3.8043
194.2,3.8164
194.3,3.7339
194.4,3.5708
194.5,3.3661
194.6,3.1658
194.7,3.0302
194.8,3.0237
194.9,3.2041
195,3.611
195.1,4.2662
195.2,5.1707
195.3,6.278
195.4,7.5282
195.5,8.8296
195.6,10.0792
195.7,11.169
195.8,11.9987

//NoiseBins
#LowerFrequency,UpperFrequency,Power
#(THz),(THz),(dBm)
191.6097,191.8095,-58.5426
191.8095,192.0094,-57.7677
192.0094,192.2092,-57.1729
192.2092,192.4091,-56.8234
192.4091,192.6089,-56.7432
192.6089,192.8088,-56.8927
192.8088,193.0086,-57.1612
193.0086,193.2084,-57.3875
193.2084,193.4083,-57.4132
193.4083,193.6081,-57.1572
193.6081,193.808,-56.6756
193.808,194.0078,-56.1608
194.0078,194.2077,-55.8575
194.2077,194.4075,-55.9165
194.4075,194.6073,-56.2618
194.6073,194.8072,-56.5552
194.8072,195.007,-56.3165
195.007,195.2069,-55.1807
195.2069,195.4067,-53.1079
195.4067,195.6066,-50.5252
195.6066,195.8064,-48.1901
195.8064,196.0062,-46.8926
196.0062,196.2061,-47.1209

//TRACE,Optical Spectrum,Input 1 (Run 2) 
//Parameterized
#Frequency,Power
#(THz),(dBm)
191.7,1.3734
191.9,2.1113
192,2.4207
192.1,2.6777
192.2,2.874
192.3,3.0047
192.4,3.0675
192.5,3.0648
192.6,3.0027
192.7,2.8936
192.8,2.7521
192.9,2.5981
193,2.4528
193.1,2.3376
193.2,2.2724
193.3,2.2716
193.4,2.3439
193.5,2.4857
193.6,2.6886
193.8,3.1864
193.9,3.4211
194,3.6036
194.1,3.7098
194.4,3.4728
194.5,3.2667
194.6,3.0649
194.7,2.9274
194.9,3.0956
195,3.4986
195.1,4.1492
195.2,5.0484
195.4,7.3944
195.5,8.6901
195.6,9.9344
195.7,11.0196
195.8,11.8459

//NoiseBins
#LowerFrequency,UpperFrequency,Power
#(THz),(THz),(dBm)
191.6097,191.8095,-58.6023
191.8095,192.0094,-57.8317
192.0094,192.2092,-57.2408
192.2092,192.4091,-56.8947
192.4091,192.6089,-56.8173
192.6089,192.8088,-56.9692
192.8088,193.0086,-57.2399
193.0086,193.2084,-57.4684
193.2084,193.4083,-57.4966
193.4083,193.6081,-57.2435
193.6081,193.808,-56.7652
193.808,194.0078,-56.2535
194.0078,194.2077,-55.9529
194.2077,194.4075,-56.0143
194.4075,194.6073,-56.3621
194.6073,194.8072,-56.6591
194.8072,195.007,-56.4262
195.007,195.2069,-55.2989
195.2069,195.4067,-53.2367
195.4067,195.6066,-50.6655
195.6066,195.8064,-48.34
195.8064,196.0062,-47.0477
196.0062,196.2061,-47.2755

//TRACE,Optical Spectrum,Input 1 (Run 3) 
//Parameterized
#Frequency,Power
#(THz),(dBm)
191.8,1.8686
191.9,2.225
192.8,2.8906
192.9,2.7385
193,2.5951
193.1,2.4818
193.4,2.4952
193.5,2.6398
193.9,3.5868
194.2,3.8935
194.3,3.8119
194.5,3.446
194.8,3.1085
195.4,7.6359
195.5,8.942
195.6,10.1959

//NoiseBins
#LowerFrequency,UpperFrequency,Power
#(THz),(THz),(dBm)
191.6097,191.8095,-58.4946
191.8095,192.0094,-57.7163
192.0094,192.2092,-57.1182
192.2092,192.4091,-56.766
192.4091,192.6089,-56.6835
192.6089,192.8088,-56.8311
192.8088,193.0086,-57.0979
193.0086,193.2084,-57.3224
193.2084,193.4083,-57.346
193.4083,193.6081,-57.0876
193.6081,193.808,-56.6035
193.808,194.0078,-56.0862
194.0078,194.2077,-55.7807
194.2077,194.4075,-55.8378
194.4075,194.6073,-56.1811
194.6073,194.8072,-56.4716
194.8072,195.007,-56.2282
195.007,195.2069,-55.0857
195.2069,195.4067,-53.0041
195.4067,195.6066,-50.4123
195.6066,195.8064,-48.0695
195.8064,196.0062,-46.7677
196.0062,196.2061,-46.9965

//TRACE,Optical Spectrum,Input 1 (Run 4) 
//Parameterized
#Frequency,Power
#(THz),(dBm)
191.6,1.081
191.8,1.8829
191.9,2.2399
192.1,2.8145
192.2,3.0145
192.3,3.1485
192.4,3.2144
192.5,3.2145
192.6,3.1549
192.7,3.048
192.8,2.9087
192.9,2.7568
193,2.6137
193.1,2.5007
193.3,2.4398
193.4,2.515
193.5,2.6599
193.6,2.8661
193.7,3.1121
193.9,3.6084
194,3.7939
194.1,3.9028
194.3,3.8348
194.5,3.4695
194.6,3.2708
194.7,3.1372
194.8,3.1334
194.9,3.317
195,3.728
195.1,4.388
195.3,6.4112
195.4,7.6675
195.5,8.975
195.7,11.3246
195.8,12.1579

//NoiseBins
#LowerFrequency,UpperFrequency,Power
#(THz),(THz),(dBm)
191.6097,191.8095,-58.4805
191.8095,192.0094,-57.7011
192.0094,192.2092,-57.1022
192.2092,192.4091,-56.7492
192.4091,192.6089,-56.666
192.6089,192.8088,-56.8131
192.8088,193.0086,-57.0793
193.0086,193.2084,-57.3033
193.2084,193.4083,-57.3263
193.4083,193.6081,-57.0672
193.6081,193.808,-56.5824
193.808,194.0078,-56.0643
194.0078,194.2077,-55.7581
194.2077,194.4075,-55.8147
194.4075,194.6073,-56.1574
194.6073,194.8072,-56.447
194.8072,195.007,-56.2023
195.007,195.2069,-55.0578
195.2069,195.4067,-52.9737
195.4067,195.6066,-50.3792
195.6066,195.8064,-48.0341
195.8064,196.0062,-46.731
196.0062,196.2061,-46.96

//TRACE,Optical Spectrum,Input 1 (Run 5) 
//Parameterized
#Frequency,Power
#(THz),(dBm)
191.8,2.0869
191.9,2.4511
192.8,3.1659
192.9,3.0175
193.3,2.716
193.8,3.673
194.2,4.2372
195.3,6.8399
195.5,9.4428

//NoiseBins
#LowerFrequency,UpperFrequency,Power
#(THz),(THz),(dBm)
191.6097,191.8095,-58.2805
191.8095,192.0094,-57.4869
192.0094,192.2092,-56.8748
192.2092,192.4091,-56.5104
192.4091,192.6089,-56.4177
192.6089,192.8088,-56.5568
192.8088,193.0086,-56.8158
193.0086,193.2084,-57.0323
193.2084,193.4083,-57.0468
193.4083,193.6081,-56.7779
193.6081,193.808,-56.2823
193.808,194.0078,-55.7539
194.0078,194.2077,-55.4385
194.2077,194.4075,-55.4872
194.4075,194.6073,-55.8216
194.6073,194.8072,-56.099
194.8072,195.007,-55.8349
195.007,195.2069,-54.6622
195.2069,195.4067,-52.542
195.4067,195.6066,-49.9092
195.6066,195.8064,-47.5319
195.8064,196.0062,-46.2111
196.0062,196.2061,-46.4421



//TRACE,Optical Spectrum,Input 1 (Run 6) 
//Parameterized
#Frequency,Power
#(THz),(dBm)
194,3.1153
194.1,3.2145
195,2.9101
195.5,7.9592

//NoiseBins
#LowerFrequency,UpperFrequency,Power
#(THz),(THz),(dBm)
191.6097,191.8095,-58.915
191.8095,192.0094,-58.1669
192.0094,192.2092,-57.5964
192.2092,192.4091,-57.2681
192.4091,192.6089,-57.2056
192.6089,192.8088,-57.3701
192.8088,193.0086,-57.6521
193.0086,193.2084,-57.8923
193.2084,193.4083,-57.9339
193.4083,193.6081,-57.6962
193.6081,193.808,-57.2345
193.808,194.0078,-56.7391
194.0078,194.2077,-56.4528
194.2077,194.4075,-56.5265
194.4075,194.6073,-56.8875
194.6073,194.8072,-57.2035
194.8072,195.007,-57.001
195.007,195.2069,-55.9177
195.2069,195.4067,-53.9117
195.4067,195.6066,-51.4001
195.6066,195.8064,-49.1248
195.8064,196.0062,-47.8601
196.0062,196.2061,-48.0848



//TRACE,Optical Spectrum,Input 1 (Run 7) 
//Parameterized
#Frequency,Power
#(THz),(dBm)
192.1,2.0559
192.2,2.2355
193.1,1.5959
193.6,1.8816
193.8,2.3491
194.7,1.9735
195,2.4557
195.3,4.963
195.5,7.3948
195.8,10.4278

//NoiseBins
#LowerFrequency,UpperFrequency,Power
#(THz),(THz),(dBm)
191.6097,191.8095,-59.1567
191.8095,192.0094,-58.4259
192.0094,192.2092,-57.8713
192.2092,192.4091,-57.5568
192.4091,192.6089,-57.5058
192.6089,192.8088,-57.6799
192.8088,193.0086,-57.9707
193.0086,193.2084,-58.2201
193.2084,193.4083,-58.272
193.4083,193.6081,-58.0461
193.6081,193.808,-57.5973
193.808,194.0078,-57.1144
194.0078,194.2077,-56.8392
194.2077,194.4075,-56.9225
194.4075,194.6073,-57.2936
194.6073,194.8072,-57.6245
194.8072,195.007,-57.4454
195.007,195.2069,-56.396
195.2069,195.4067,-54.4333
195.4067,195.6066,-51.9677
195.6066,195.8064,-49.7311
195.8064,196.0062,-48.4877
196.0062,196.2061,-48.71



//TRACE,Optical Spectrum,Input 1 (Run 8) 
//Parameterized
#Frequency,Power
#(THz),(dBm)
191.6,0.1436
192.7,1.7893
193,1.3026
193.2,1.0886
194.5,1.8174
195.5,6.6531
195.6,7.8199
195.7,8.8392

//NoiseBins
#LowerFrequency,UpperFrequency,Power
#(THz),(THz),(dBm)
191.6097,191.8095,-59.4747
191.8095,192.0094,-58.7666
192.0094,192.2092,-58.2328
192.2092,192.4091,-57.9363
192.4091,192.6089,-57.9005
192.6089,192.8088,-58.0874
192.8088,193.0086,-58.3899
193.0086,193.2084,-58.6512
193.2084,193.4083,-58.7167
193.4083,193.6081,-58.5065
193.6081,193.808,-58.0745
193.808,194.0078,-57.6082
194.0078,194.2077,-57.3474
194.2077,194.4075,-57.4433
194.4075,194.6073,-57.828
194.6073,194.8072,-58.1783
194.8072,195.007,-58.0301
195.007,195.2069,-57.0253
195.2069,195.4067,-55.1193
195.4067,195.6066,-52.7139
195.6066,195.8064,-50.528
195.8064,196.0062,-49.3125
196.0062,196.2061,-49.5317



//TRACE,Optical Spectrum,Input 1 (Run 9) 
//Parameterized
#Frequency,Power
#(THz),(dBm)
191.6,1.5358
192,3.0788
192.2,3.5698
192.3,3.7172
192.6,3.7565
192.7,3.6588
192.8,3.5281
192.9,3.3846
193.7,3.8273
193.8,4.0989
194.1,4.6662
194.2,4.6893
194.3,4.6171
194.4,4.4644
194.6,4.0848
195.2,6.2845
195.3,7.4437
195.5,10.1016

//NoiseBins
#LowerFrequency,UpperFrequency,Power
#(THz),(THz),(dBm)
191.6097,191.8095,-57.9992
191.8095,192.0094,-57.1853
192.0094,192.2092,-56.5548
192.2092,192.4091,-56.1743
192.4091,192.6089,-56.0683
192.6089,192.8088,-56.1961
192.8088,193.0086,-56.4449
193.0086,193.2084,-56.6509
193.2084,193.4083,-56.6535
193.4083,193.6081,-56.3707
193.6081,193.808,-55.8601
193.808,194.0078,-55.3169
194.0078,194.2077,-54.9887
194.2077,194.4075,-55.0263
194.4075,194.6073,-55.3489
194.6073,194.8072,-55.6093
194.8072,195.007,-55.3179
195.007,195.2069,-54.1054
195.2069,195.4067,-51.9343
195.4067,195.6066,-49.2474
195.6066,195.8064,-46.8248
195.8064,196.0062,-45.4791
196.0062,196.2061,-45.7128



//TRACE,Optical Spectrum,Input 1 (Run 10) 
//Parameterized
#Frequency,Power
#(THz),(dBm)
192.6,3.0582
193,2.5115
193.2,2.3328
194.5,3.3407
194.9,3.1763
195.2,5.1394
195.3,6.2453
195.5,8.7939

//NoiseBins
#LowerFrequency,UpperFrequency,Power
#(THz),(THz),(dBm)
191.6097,191.8095,-58.5579
191.8095,192.0094,-57.7841
192.0094,192.2092,-57.1902
192.2092,192.4091,-56.8416
192.4091,192.6089,-56.7621
192.6089,192.8088,-56.9123
192.8088,193.0086,-57.1813
193.0086,193.2084,-57.4082
193.2084,193.4083,-57.4345
193.4083,193.6081,-57.1792
193.6081,193.808,-56.6985
193.808,194.0078,-56.1845
194.0078,194.2077,-55.8819
194.2077,194.4075,-55.9415
194.4075,194.6073,-56.2875
194.6073,194.8072,-56.5817
194.8072,195.007,-56.3445
195.007,195.2069,-55.2109
195.2069,195.4067,-53.1408
195.4067,195.6066,-50.5611
195.6066,195.8064,-48.2284
195.8064,196.0062,-46.9322
196.0062,196.2061,-47.1604



//TRACE,Optical Spectrum,Input 1 (Run 11) 
//Parameterized
#Frequency,Power
#(THz),(dBm)
191.6,1.0667
191.7,1.4782
191.8,1.8675
191.9,2.2239
192,2.537
192.1,2.7975
192.2,2.997
192.3,3.1306
192.4,3.1961
192.5,3.1959
192.6,3.136
192.7,3.0288
192.8,2.8893
192.9,2.7371
193,2.5937
193.1,2.4805
193.2,2.4174
193.3,2.4189
193.4,2.4937
193.5,2.6383
193.6,2.844
193.7,3.0896
193.8,3.3477
193.9,3.5852
194,3.7703
194.1,3.8788
194.2,3.8919
194.3,3.8103
194.4,3.6481
194.5,3.4443
194.6,3.2452
194.7,3.1111
194.8,3.1067
194.9,3.2895
195,3.6995
195.1,4.3583
195.2,5.2669
195.3,6.3788
195.4,7.6336
195.5,8.9396
195.6,10.1934
195.7,11.2867
195.8,12.1191

//NoiseBins
#LowerFrequency,UpperFrequency,Power
#(THz),(THz),(dBm)
191.6097,191.8095,-58.4956
191.8095,192.0094,-57.7174
192.0094,192.2092,-57.1194
192.2092,192.4091,-56.7673
192.4091,192.6089,-56.6848
192.6089,192.8088,-56.8324
192.8088,193.0086,-57.0992
193.0086,193.2084,-57.3238
193.2084,193.4083,-57.3475
193.4083,193.6081,-57.0891
193.6081,193.808,-56.6051
193.808,194.0078,-56.0878
194.0078,194.2077,-55.7823
194.2077,194.4075,-55.8395
194.4075,194.6073,-56.1829
194.6073,194.8072,-56.4734
194.8072,195.007,-56.2301
195.007,195.2069,-55.0877
195.2069,195.4067,-53.0064
195.4067,195.6066,-50.4147
195.6066,195.8064,-48.0721
195.8064,196.0062,-46.7704
196.0062,196.2061,-46.9992



//TRACE,Optical Spectrum,Input 1 (Run 12) 
//Parameterized
#Frequency,Power
#(THz),(dBm)
191.6,0.3891
192.4,2.3309
193.4,1.4857
193.9,2.4814
194.7,1.8751
195.3,4.8406
195.5,7.2612
195.7,9.4902

//NoiseBins
#LowerFrequency,UpperFrequency,Power
#(THz),(THz),(dBm)
191.6097,191.8095,-59.2139
191.8095,192.0094,-58.4872
192.0094,192.2092,-57.9363
192.2092,192.4091,-57.6251
192.4091,192.6089,-57.5768
192.6089,192.8088,-57.7533
192.8088,193.0086,-58.0461
193.0086,193.2084,-58.2976
193.2084,193.4083,-58.352
193.4083,193.6081,-58.129
193.6081,193.808,-57.6832
193.808,194.0078,-57.2033
194.0078,194.2077,-56.9307
194.2077,194.4075,-57.0162
194.4075,194.6073,-57.3898
194.6073,194.8072,-57.7241
194.8072,195.007,-57.5506
195.007,195.2069,-56.5093
195.2069,195.4067,-54.5568
195.4067,195.6066,-52.1021
195.6066,195.8064,-49.8746
195.8064,196.0062,-48.6361
196.0062,196.2061,-48.8579



//TRACE,Optical Spectrum,Input 1 (Run 13) 
//Parameterized
#Frequency,Power
#(THz),(dBm)
191.6,0.9708
191.7,1.3784
191.8,1.7639
191.9,2.1167
192.1,2.6834
192.2,2.8799
192.3,3.0107
192.4,3.0736
192.8,2.7586
192.9,2.6047
193,2.4596
193.1,2.3444
193.2,2.2793
193.3,2.2786
193.5,2.493
193.6,2.696
193.7,2.9388
193.8,3.1941
194,3.6115
194.1,3.7178
194.2,3.7288
194.3,3.6452
194.4,3.4811
194.5,3.2752
194.6,3.0735
194.7,2.9361
194.8,2.9274
194.9,3.1048
195,3.5081
195.1,4.1592
195.2,5.0588
195.4,7.4058
195.5,8.7019
195.6,9.9467
195.7,11.0323
195.8,11.8589

//NoiseBins
#LowerFrequency,UpperFrequency,Power
#(THz),(THz),(dBm)
191.6097,191.8095,-58.5972
191.8095,192.0094,-57.8263
192.0094,192.2092,-57.235
192.2092,192.4091,-56.8886
192.4091,192.6089,-56.811
192.6089,192.8088,-56.9627
192.8088,193.0086,-57.2332
193.0086,193.2084,-57.4615
193.2084,193.4083,-57.4895
193.4083,193.6081,-57.2362
193.6081,193.808,-56.7575
193.808,194.0078,-56.2456
194.0078,194.2077,-55.9448
194.2077,194.4075,-56.006
194.4075,194.6073,-56.3536
194.6073,194.8072,-56.6502
194.8072,195.007,-56.4168
195.007,195.2069,-55.2888
195.2069,195.4067,-53.2257
195.4067,195.6066,-50.6535
195.6066,195.8064,-48.3272
195.8064,196.0062,-47.0345
196.0062,196.2061,-47.2623



//TRACE,Optical Spectrum,Input 1 (Run 14) 
//Parameterized
#Frequency,Power
#(THz),(dBm)
191.7,1.5747
191.8,1.9677
192,2.6441
192.1,2.9078
192.3,3.2466
192.5,3.3165
192.8,3.0155
192.9,2.8651
193.2,2.5509
193.3,2.5545
193.4,2.6317
193.5,2.7788
193.6,2.9872
193.7,3.2355
194.3,3.9698
194.5,3.6077
194.6,3.4112
194.7,3.2803
195.1,4.5509
195.3,6.5893
195.4,7.8538
195.5,9.1693
195.7,11.5326

//NoiseBins
#LowerFrequency,UpperFrequency,Power
#(THz),(THz),(dBm)
191.6097,191.8095,-58.3974
191.8095,192.0094,-57.6121
192.0094,192.2092,-57.0077
192.2092,192.4091,-56.65
192.4091,192.6089,-56.5629
192.6089,192.8088,-56.7066
192.8088,193.0086,-56.9698
193.0086,193.2084,-57.1907
193.2084,193.4083,-57.2102
193.4083,193.6081,-56.947
193.6081,193.808,-56.4577
193.808,194.0078,-55.9353
194.0078,194.2077,-55.6253
194.2077,194.4075,-55.6787
194.4075,194.6073,-56.0179
194.6073,194.8072,-56.3024
194.8072,195.007,-56.0497
195.007,195.2069,-54.8934
195.2069,195.4067,-52.7944
195.4067,195.6066,-50.1839
195.6066,195.8064,-47.8255
195.8064,196.0062,-46.5151
196.0062,196.2061,-46.7449



//TRACE,Optical Spectrum,Input 1 (Run 15) 
//Parameterized
#Frequency,Power
#(THz),(dBm)
191.7,1.2624
191.8,1.6435
192,2.2975
192.1,2.5509
192.2,2.7437
192.3,2.8713
193,2.3036
193.2,2.1188
193.6,2.524
193.7,2.7635
193.9,3.2473
194,3.4271
194.3,3.4535
194.5,3.0787
195,3.2858
195.2,4.8171
195.3,5.9079
195.5,8.4258
195.6,9.6601
195.7,10.7368

//NoiseBins
#LowerFrequency,UpperFrequency,Power
#(THz),(THz),(dBm)
191.6097,191.8095,-58.7153
191.8095,192.0094,-57.9528
192.0094,192.2092,-57.3693
192.2092,192.4091,-57.0297
192.4091,192.6089,-56.9577
192.6089,192.8088,-57.1141
192.8088,193.0086,-57.3888
193.0086,193.2084,-57.6216
193.2084,193.4083,-57.6547
193.4083,193.6081,-57.4071
193.6081,193.808,-56.9348
193.808,194.0078,-56.429
194.0078,194.2077,-56.1336
194.2077,194.4075,-56.1994
194.4075,194.6073,-56.552
194.6073,194.8072,-56.8558
194.8072,195.007,-56.6339
195.007,195.2069,-55.5225
195.2069,195.4067,-53.4807
195.4067,195.6066,-50.931
195.6066,195.8064,-48.6237
195.8064,196.0062,-47.3414
196.0062,196.2061,-47.5681



//TRACE,Optical Spectrum,Input 1 (Run 16) 
//Parameterized
#Frequency,Power
#(THz),(dBm)
191.6,0.3287
192,1.6848
192.6,2.1597
192.7,2.0378
192.9,1.7186
193.4,1.3957
193.5,1.5203
193.6,1.7051
193.8,2.1659
194,2.549
194.1,2.6401
194.8,1.7275
195.4,5.8811
195.5,7.1115
195.6,8.2957
195.7,9.3299
195.8,10.1177

//NoiseBins
#LowerFrequency,UpperFrequency,Power
#(THz),(THz),(dBm)
191.6097,191.8095,-59.2781
191.8095,192.0094,-58.556
192.0094,192.2092,-58.0093
192.2092,192.4091,-57.7017
192.4091,192.6089,-57.6565
192.6089,192.8088,-57.8355
192.8088,193.0086,-58.1307
193.0086,193.2084,-58.3846
193.2084,193.4083,-58.4417
193.4083,193.6081,-58.2219
193.6081,193.808,-57.7795
193.808,194.0078,-57.3029
194.0078,194.2077,-57.0332
194.2077,194.4075,-57.1213
194.4075,194.6073,-57.4976
194.6073,194.8072,-57.8359
194.8072,195.007,-57.6686
195.007,195.2069,-56.6363
195.2069,195.4067,-54.6952
195.4067,195.6066,-52.2527
195.6066,195.8064,-50.0354
195.8064,196.0062,-48.8026
196.0062,196.2061,-49.0238



//TRACE,Optical Spectrum,Input 1 (Run 17) 
//Parameterized
#Frequency,Power
#(THz),(dBm)
191.6,1.1434
191.7,1.558
191.8,1.9504
191.9,2.3097
192,2.6256
192.1,2.8887
192.6,3.2374
192.7,3.1318
192.8,2.9937
192.9,2.843
193.1,2.5893
193.2,2.5278
193.3,2.5311
193.4,2.6079
193.5,2.7545
193.6,2.9624
193.7,3.2102
193.8,3.4705
194.2,4.0222
194.3,3.9422
194.5,3.5795
194.6,3.3825
194.7,3.2511
194.9,3.4372
195,3.8524
195.1,4.5176
195.2,5.4333
195.3,6.5529
195.4,7.8158
195.5,9.1296
195.6,10.3906
195.7,11.4901

//NoiseBins
#LowerFrequency,UpperFrequency,Power
#(THz),(THz),(dBm)
191.6097,191.8095,-58.4144
191.8095,192.0094,-57.6303
192.0094,192.2092,-57.027
192.2092,192.4091,-56.6703
192.4091,192.6089,-56.584
192.6089,192.8088,-56.7283
192.8088,193.0086,-56.9922
193.0086,193.2084,-57.2137
193.2084,193.4083,-57.2339
193.4083,193.6081,-56.9716
193.6081,193.808,-56.4832
193.808,194.0078,-55.9617
194.0078,194.2077,-55.6525
194.2077,194.4075,-55.7065
194.4075,194.6073,-56.0464
194.6073,194.8072,-56.332
194.8072,195.007,-56.0809
195.007,195.2069,-54.927
195.2069,195.4067,-52.831
195.4067,195.6066,-50.2238
195.6066,195.8064,-47.8681
195.8064,196.0062,-46.5592
196.0062,196.2061,-46.7888



//TRACE,Optical Spectrum,Input 1 (Run 18) 
//Parameterized
#Frequency,Power
#(THz),(dBm)
191.7,1.3677
191.8,1.7528
191.9,2.1052
192,2.4144
192.2,2.8674
192.3,2.9979
192.4,3.0605
192.5,3.0577
192.7,2.8863
192.8,2.7447
192.9,2.5906
193,2.4452
193.1,2.3299
193.3,2.2636
193.4,2.3358
193.5,2.4774
193.6,2.6802
193.7,2.9227
193.8,3.1777
193.9,3.4122
194,3.5946
194.1,3.7006
194.2,3.7114
194.3,3.6276
194.4,3.4633
194.5,3.2571
194.7,2.9174
194.8,2.9083
194.9,3.0851
195,3.4877
195.1,4.1379
195.3,6.1377
195.4,7.3815
195.5,8.6766
195.6,9.9204
195.7,11.0052
195.8,11.8312

//NoiseBins
#LowerFrequency,UpperFrequency,Power
#(THz),(THz),(dBm)
191.6097,191.8095,-58.608
191.8095,192.0094,-57.8379
192.0094,192.2092,-57.2473
192.2092,192.4091,-56.9016
192.4091,192.6089,-56.8245
192.6089,192.8088,-56.9766
192.8088,193.0086,-57.2475
193.0086,193.2084,-57.4762
193.2084,193.4083,-57.5047
193.4083,193.6081,-57.2519
193.6081,193.808,-56.7738
193.808,194.0078,-56.2624
194.0078,194.2077,-55.9621
194.2077,194.4075,-56.0237
194.4075,194.6073,-56.3718
194.6073,194.8072,-56.6691
194.8072,195.007,-56.4368
195.007,195.2069,-55.3103
