//DATASET,
//created,Sat, 06 Feb 2021 17:31:19 GMT

//TRACE,Optical Spectrum,Input 1 (Run 1) 
//Parameterized
#Frequency,Power
#(THz),(dBm)
191.6,1.027
191.7,1.4368
191.8,1.8246
191.9,2.1795
192,2.4911
192.1,2.7502
192.2,2.9485
192.3,3.0809
192.4,3.1454
192.5,3.1442
192.6,3.0834
192.7,2.9755
192.8,2.8351
192.9,2.6823
193,2.5381
193.1,2.4241
193.2,2.3602
193.3,2.3608
193.4,2.4346
193.6,2.7827
193.7,3.0271
193.8,3.2841
193.9,3.5204
194.1,3.8121
194.2,3.8243
194.3,3.7419
194.4,3.5789
194.5,3.3742
194.6,3.1741
194.7,3.0386
194.8,3.0324
194.9,3.213
195,3.6202
195.2,5.1807
195.3,6.2885
195.4,7.5392
195.5,8.8411
195.6,10.0912
195.7,11.1813
195.8,12.0113

//NoiseBins
#LowerFrequency,UpperFrequency,Power
#(THz),(THz),(dBm)
191.6097,191.8095,-58.5377
191.8095,192.0094,-57.7625
192.0094,192.2092,-57.1673
192.2092,192.4091,-56.8175
192.4091,192.6089,-56.7371
192.6089,192.8088,-56.8864
192.8088,193.0086,-57.1547
193.0086,193.2084,-57.3808
193.2084,193.4083,-57.4063
193.4083,193.6081,-57.15
193.6081,193.808,-56.6682
193.808,194.0078,-56.1532
194.0078,194.2077,-55.8496
194.2077,194.4075,-55.9085
194.4075,194.6073,-56.2536
194.6073,194.8072,-56.5466
194.8072,195.007,-56.3075
195.007,195.2069,-55.171
195.2069,195.4067,-53.0973
195.4067,195.6066,-50.5137
195.6066,195.8064,-48.1778
195.8064,196.0062,-46.8798
196.0062,196.2061,-47.1082

//TRACE,Optical Spectrum,Input 1 (Run 2) 
//Parameterized
#Frequency,Power
#(THz),(dBm)
191.7,0.7032
195.3,4.6878
195.5,7.0945

//NoiseBins
#LowerFrequency,UpperFrequency,Power
#(THz),(THz),(dBm)
191.6097,191.8095,-59.2854
191.8095,192.0094,-58.5638
192.0094,192.2092,-58.0176
192.2092,192.4091,-57.7104
192.4091,192.6089,-57.6655
192.6089,192.8088,-57.8448
192.8088,193.0086,-58.1403
193.0086,193.2084,-58.3945
193.2084,193.4083,-58.4519
193.4083,193.6081,-58.2324
193.6081,193.808,-57.7904
193.808,194.0078,-57.3142
194.0078,194.2077,-57.0449
194.2077,194.4075,-57.1333
194.4075,194.6073,-57.5099
194.6073,194.8072,-57.8486
194.8072,195.007,-57.682
195.007,195.2069,-56.6507
195.2069,195.4067,-54.7109
195.4067,195.6066,-52.2698
195.6066,195.8064,-50.0537
195.8064,196.0062,-48.8215
196.0062,196.2061,-49.0426

//TRACE,Optical Spectrum,Input 1 (Run 3) 
//Parameterized
#Frequency,Power
#(THz),(dBm)
191.7,1.1745
192.8,2.4918
193.2,1.9972
193.3,1.992
193.4,2.0594
193.6,2.3935
193.7,2.6306
194.2,3.3957
194.9,2.7275
195.1,3.7524
195.4,6.9404
195.5,8.2165
195.7,10.5127

//NoiseBins
#LowerFrequency,UpperFrequency,Power
#(THz),(THz),(dBm)
191.6097,191.8095,-58.8049
191.8095,192.0094,-58.0488
192.0094,192.2092,-57.4711
192.2092,192.4091,-57.1366
192.4091,192.6089,-57.0689
192.6089,192.8088,-57.2289
192.8088,193.0086,-57.5069
193.0086,193.2084,-57.743
193.2084,193.4083,-57.7799
193.4083,193.6081,-57.5368
193.6081,193.808,-57.0692
193.808,194.0078,-56.5681
194.0078,194.2077,-56.2767
194.2077,194.4075,-56.3461
194.4075,194.6073,-56.7024
194.6073,194.8072,-57.0118
194.8072,195.007,-56.7985
195.007,195.2069,-55.6997
195.2069,195.4067,-53.674
195.4067,195.6066,-51.1414
195.6066,195.8064,-48.8485
195.8064,196.0062,-47.5741
196.0062,196.2061,-47.7999

//TRACE,Optical Spectrum,Input 1 (Run 4) 
//Parameterized
#Frequency,Power
#(THz),(dBm)
191.6,1.6524
191.7,2.0876
191.8,2.5001
191.9,2.8789
192,3.2134
192.1,3.494
192.2,3.7122
192.3,3.863
192.4,3.944
192.6,3.9108
192.7,3.8154
193.1,3.3112
193.2,3.2605
193.3,3.2756
193.6,3.7479
193.7,4.0106
193.8,4.2856
193.9,4.5393
194,4.7395
194.3,4.8176
194.4,4.6672
194.6,4.2934
194.9,4.4172
195.1,5.5742
195.2,6.5374
195.3,7.7084
195.4,9.0245
195.5,10.3904

//NoiseBins
#LowerFrequency,UpperFrequency,Power
#(THz),(THz),(dBm)
191.6097,191.8095,-57.876
191.8095,192.0094,-57.0532
192.0094,192.2092,-56.4145
192.2092,192.4091,-56.0271
192.4091,192.6089,-55.9151
192.6089,192.8088,-56.038
192.8088,193.0086,-56.2824
193.0086,193.2084,-56.4839
193.2084,193.4083,-56.4812
193.4083,193.6081,-56.1923
193.6081,193.808,-55.6751
193.808,194.0078,-55.1255
194.0078,194.2077,-54.7915
194.2077,194.4075,-54.8243
194.4075,194.6073,-55.1418
194.6073,194.8072,-55.3948
194.8072,195.007,-55.0914
195.007,195.2069,-53.8614
195.2069,195.4067,-51.668
195.4067,195.6066,-48.9574
195.6066,195.8064,-46.5148
195.8064,196.0062,-45.1582
196.0062,196.2061,-45.3931

//TRACE,Optical Spectrum,Input 1 (Run 5) 
//Parameterized
#Frequency,Power
#(THz),(dBm)
191.8,1.3456
191.9,1.6835
192,1.979
192.2,2.4069
192.5,2.5671
192.8,2.2312
192.9,2.0702
193.2,1.7217
193.4,1.7748
193.7,2.3298
193.9,2.7979
194,2.9706
194.1,3.0677
194.2,3.0704
194.4,2.8072
194.5,2.5925
194.9,2.3591
195,2.7357
195.4,6.486
195.5,7.7425
195.6,8.9508
195.7,10.0053
195.8,10.8085

//NoiseBins
#LowerFrequency,UpperFrequency,Power
#(THz),(THz),(dBm)
191.6097,191.8095,-59.0078
191.8095,192.0094,-58.2663
192.0094,192.2092,-57.7019
192.2092,192.4091,-57.3789
192.4091,192.6089,-57.3208
192.6089,192.8088,-57.489
192.8088,193.0086,-57.7743
193.0086,193.2084,-58.0181
193.2084,193.4083,-58.0636
193.4083,193.6081,-57.8305
193.6081,193.808,-57.3737
193.808,194.0078,-56.8831
194.0078,194.2077,-56.6011
194.2077,194.4075,-56.6785
194.4075,194.6073,-57.0433
194.6073,194.8072,-57.3651
194.8072,195.007,-57.1715
195.007,195.2069,-56.1012
195.2069,195.4067,-54.1119
195.4067,195.6066,-51.618
195.6066,195.8064,-49.3575
195.8064,196.0062,-48.101
196.0062,196.2061,-48.3248



//TRACE,Optical Spectrum,Input 1 (Run 6) 
//Parameterized
#Frequency,Power
#(THz),(dBm)
191.7,1.2764
191.8,1.658
191.9,2.007
192.1,2.5668
192.2,2.7601
192.5,2.9435
192.6,2.8793
192.8,2.6251
192.9,2.4694
193.2,2.1382
193.4,2.2051
193.5,2.3444
193.6,2.5447
193.7,2.7846
193.8,3.0371
194,3.4493
194.1,3.5532
194.2,3.5621
194.3,3.4766
194.4,3.3105
194.5,3.1024
194.6,2.8981
194.8,2.7442
194.9,2.9161
195.2,4.8462
195.5,8.4591
195.6,9.6946
195.7,10.7723
195.8,11.593

//NoiseBins
#LowerFrequency,UpperFrequency,Power
#(THz),(THz),(dBm)
191.6097,191.8095,-58.7011
191.8095,192.0094,-57.9376
192.0094,192.2092,-57.3531
192.2092,192.4091,-57.0127
192.4091,192.6089,-56.94
192.6089,192.8088,-57.0959
192.8088,193.0086,-57.3701
193.0086,193.2084,-57.6023
193.2084,193.4083,-57.6348
193.4083,193.6081,-57.3865
193.6081,193.808,-56.9134
193.808,194.0078,-56.4069
194.0078,194.2077,-56.1108
194.2077,194.4075,-56.1761
194.4075,194.6073,-56.5281
194.6073,194.8072,-56.8311
194.8072,195.007,-56.6078
195.007,195.2069,-55.4943
195.2069,195.4067,-53.45
195.4067,195.6066,-50.8976
195.6066,195.8064,-48.588
195.8064,196.0062,-47.3044
196.0062,196.2061,-47.5313



//TRACE,Optical Spectrum,Input 1 (Run 7) 
//Parameterized
#Frequency,Power
#(THz),(dBm)
191.7,1.4247
191.9,2.1665
192,2.4777
192.1,2.7364
192.3,3.0664
192.7,2.9598
192.8,2.8193
192.9,2.6662
193.1,2.4076
193.2,2.3434
193.3,2.3437
193.5,2.5604
193.6,2.7647
194,3.6852
194.2,3.8045
194.3,3.7218
194.5,3.3537
194.6,3.1532
194.8,3.0106
195.3,6.2621
195.5,8.8122
195.6,10.0612
195.7,11.1504

//NoiseBins
#LowerFrequency,UpperFrequency,Power
#(THz),(THz),(dBm)
191.6097,191.8095,-58.55
191.8095,192.0094,-57.7757
192.0094,192.2092,-57.1813
192.2092,192.4091,-56.8323
192.4091,192.6089,-56.7524
192.6089,192.8088,-56.9022
192.8088,193.0086,-57.171
193.0086,193.2084,-57.3976
193.2084,193.4083,-57.4236
193.4083,193.6081,-57.1679
193.6081,193.808,-56.6868
193.808,194.0078,-56.1724
194.0078,194.2077,-55.8694
194.2077,194.4075,-55.9287
194.4075,194.6073,-56.2743
194.6073,194.8072,-56.5681
194.8072,195.007,-56.3302
195.007,195.2069,-55.1955
195.2069,195.4067,-53.1239
195.4067,195.6066,-50.5427
195.6066,195.8064,-48.2088
195.8064,196.0062,-46.9119
196.0062,196.2061,-47.1402



//TRACE,Optical Spectrum,Input 1 (Run 8) 
//Parameterized
#Frequency,Power
#(THz),(dBm)
191.9,2.0439
192.4,2.9905
193,2.3685
193.8,3.0898
194.9,2.9795
195.4,7.2512
195.5,8.5407

//NoiseBins
#LowerFrequency,UpperFrequency,Power
#(THz),(THz),(dBm)
191.6097,191.8095,-58.6662
191.8095,192.0094,-57.9002
192.0094,192.2092,-57.3134
192.2092,192.4091,-56.971
192.4091,192.6089,-56.8967
192.6089,192.8088,-57.0511
192.8088,193.0086,-57.3241
193.0086,193.2084,-57.555
193.2084,193.4083,-57.586
193.4083,193.6081,-57.336
193.6081,193.808,-56.8611
193.808,194.0078,-56.3527
194.0078,194.2077,-56.055
194.2077,194.4075,-56.1189
194.4075,194.6073,-56.4694
194.6073,194.8072,-56.7703
194.8072,195.007,-56.5436
195.007,195.2069,-55.4253
195.2069,195.4067,-53.3746
195.4067,195.6066,-50.8156
195.6066,195.8064,-48.5004
195.8064,196.0062,-47.2137
196.0062,196.2061,-47.4409



//TRACE,Optical Spectrum,Input 1 (Run 9) 
//Parameterized
#Frequency,Power
#(THz),(dBm)
191.6,0.8377
191.9,1.9678
192,2.2725
192.3,2.8443
192.4,2.9037
192.8,2.5774
193,2.2734
193.1,2.1556
193.2,2.0877
193.4,2.153
193.6,2.4906
193.7,2.7295
193.8,2.981
193.9,3.2121
194.4,3.2495
194.5,3.0406
194.6,2.8353
194.9,2.8486
195,3.2427
195.4,7.0897
195.5,8.3722
195.7,10.6794
195.8,11.498

//NoiseBins
#LowerFrequency,UpperFrequency,Power
#(THz),(THz),(dBm)
191.6097,191.8095,-58.7382
191.8095,192.0094,-57.9774
192.0094,192.2092,-57.3954
192.2092,192.4091,-57.057
192.4091,192.6089,-56.9861
192.6089,192.8088,-57.1435
192.8088,193.0086,-57.4191
193.0086,193.2084,-57.6527
193.2084,193.4083,-57.6867
193.4083,193.6081,-57.4403
193.6081,193.808,-56.9692
193.808,194.0078,-56.4646
194.0078,194.2077,-56.1702
194.2077,194.4075,-56.237
194.4075,194.6073,-56.5905
194.6073,194.8072,-56.8958
194.8072,195.007,-56.676
195.007,195.2069,-55.5679
195.2069,195.4067,-53.5302
195.4067,195.6066,-50.9849
195.6066,195.8064,-48.6813
195.8064,196.0062,-47.4009
196.0062,196.2061,-47.6274



//TRACE,Optical Spectrum,Input 1 (Run 10) 
//Parameterized
#Frequency,Power
#(THz),(dBm)
191.6,1.0589
191.7,1.4701
191.8,1.8591
191.9,2.2153
192,2.5281
192.1,2.7883
192.2,2.9875
192.3,3.1209
192.4,3.1862
192.5,3.1858
192.6,3.1257
193,2.5829
193.1,2.4694
193.2,2.4062
193.3,2.4075
193.4,2.4822
193.6,2.832
193.8,3.3353
193.9,3.5725
194,3.7574
194.1,3.8658
194.2,3.8787
194.3,3.7969
194.4,3.6346
194.5,3.4306
194.6,3.2313
194.7,3.097
194.9,3.2746
195.1,4.3422
195.2,5.2501
195.3,6.3611
195.4,7.6152
195.5,8.9203
195.7,11.2661
195.8,12.098

//NoiseBins
#LowerFrequency,UpperFrequency,Power
#(THz),(THz),(dBm)
191.6097,191.8095,-58.5038
191.8095,192.0094,-57.7262
192.0094,192.2092,-57.1288
192.2092,192.4091,-56.7771
192.4091,192.6089,-56.695
192.6089,192.8088,-56.843
192.8088,193.0086,-57.1101
193.0086,193.2084,-57.3349
193.2084,193.4083,-57.359
193.4083,193.6081,-57.101
193.6081,193.808,-56.6174
193.808,194.0078,-56.1006
194.0078,194.2077,-55.7955
194.2077,194.4075,-55.853
194.4075,194.6073,-56.1967
194.6073,194.8072,-56.4877
194.8072,195.007,-56.2452
195.007,195.2069,-55.104
195.2069,195.4067,-53.0241
195.4067,195.6066,-50.4341
195.6066,195.8064,-48.0928
195.8064,196.0062,-46.7918
196.0062,196.2061,-47.0205



//TRACE,Optical Spectrum,Input 1 (Run 11) 
//Parameterized
#Frequency,Power
#(THz),(dBm)
191.7,1.3111
191.8,1.694
191.9,2.0443
192.1,2.6065
192.2,2.8009
192.3,2.9298
192.4,2.991
192.5,2.9869
192.6,2.9235
192.7,2.8131
192.8,2.6705
193.2,2.1862
193.5,2.395
193.9,3.3235
194,3.5045
194.4,3.3686
194.5,3.1612
194.6,2.9578
194.7,2.8181
194.8,2.8065
194.9,2.9803
195,3.3791
195.1,4.0249
195.2,4.9185
195.3,6.0141
195.4,7.2522
195.5,8.5417
195.7,10.8608
195.8,11.6835

//NoiseBins
#LowerFrequency,UpperFrequency,Power
#(THz),(THz),(dBm)
191.6097,191.8095,-58.6657
191.8095,192.0094,-57.8997
192.0094,192.2092,-57.3129
192.2092,192.4091,-56.9705
192.4091,192.6089,-56.8961
192.6089,192.8088,-57.0506
192.8088,193.0086,-57.3235
193.0086,193.2084,-57.5544
193.2084,193.4083,-57.5854
193.4083,193.6081,-57.3354
193.6081,193.808,-56.8604
193.808,194.0078,-56.352
194.0078,194.2077,-56.0543
194.2077,194.4075,-56.1182
194.4075,194.6073,-56.4687
194.6073,194.8072,-56.7695
194.8072,195.007,-56.5428
195.007,195.2069,-55.4244
195.2069,195.4067,-53.3737
195.4067,195.6066,-50.8146
195.6066,195.8064,-48.4993
195.8064,196.0062,-47.2126
196.0062,196.2061,-47.4398



//TRACE,Optical Spectrum,Input 1 (Run 12) 
//Parameterized
#Frequency,Power
#(THz),(dBm)
191.6,0.9902
191.8,1.7849
191.9,2.1384
192,2.4487
192.1,2.7066
192.2,2.9036
192.3,3.035
192.4,3.0985
192.5,3.0964
192.6,3.0348
192.7,2.9262
192.8,2.7852
192.9,2.6316
193.1,2.372
193.2,2.3073
193.3,2.3071
193.4,2.38
193.5,2.5225
193.6,2.7261
193.7,2.9694
193.9,3.4606
194,3.6438
194.2,3.7619
194.3,3.6788
194.4,3.515
194.5,3.3095
194.6,3.1084
194.7,2.9717
194.8,2.9638
194.9,3.1423
195,3.547
195.1,4.1996
195.2,5.1011
195.3,6.2052
195.4,7.4521
195.5,8.7502
195.6,9.9968
195.7,11.084
195.8,11.9118

//NoiseBins
#LowerFrequency,UpperFrequency,Power
#(THz),(THz),(dBm)
191.6097,191.8095,-58.5766
191.8095,192.0094,-57.8041
192.0094,192.2092,-57.2115
192.2092,192.4091,-56.864
192.4091,192.6089,-56.7854
192.6089,192.8088,-56.9362
192.8088,193.0086,-57.206
193.0086,193.2084,-57.4335
193.2084,193.4083,-57.4607
193.4083,193.6081,-57.2063
193.6081,193.808,-56.7266
193.808,194.0078,-56.2136
194.0078,194.2077,-55.9118
194.2077,194.4075,-55.9721
194.4075,194.6073,-56.3189
194.6073,194.8072,-56.6143
194.8072,195.007,-56.3789
195.007,195.2069,-55.248
195.2069,195.4067,-53.1812
195.4067,195.6066,-50.605
195.6066,195.8064,-48.2754
195.8064,196.0062,-46.9808
196.0062,196.2061,-47.2089



//TRACE,Optical Spectrum,Input 1 (Run 13) 
//Parameterized
#Frequency,Power
#(THz),(dBm)
191.6,0.9675
191.7,1.375
191.9,2.113
192,2.4225
192.1,2.6795
192.2,2.8759
192.3,3.0066
192.4,3.0694
192.5,3.0668
192.6,3.0047
192.9,2.6002
193,2.455
193.1,2.3398
193.2,2.2746
193.3,2.2738
193.4,2.3461
193.6,2.6909
193.7,2.9336
193.8,3.1889
194,3.6061
194.1,3.7123
194.2,3.7232
194.3,3.6396
194.4,3.4755
194.5,3.2694
194.6,3.0677
194.7,2.9302
194.8,2.9213
194.9,3.0985
195,3.5016
195.1,4.1524
195.2,5.0517
195.3,6.1536
195.4,7.398
195.5,8.6938
195.6,9.9383
195.7,11.0236
195.8,11.8501

//NoiseBins
#LowerFrequency,UpperFrequency,Power
#(THz),(THz),(dBm)
191.6097,191.8095,-58.6007
191.8095,192.0094,-57.83
192.0094,192.2092,-57.2389
192.2092,192.4091,-56.8928
192.4091,192.6089,-56.8153
192.6089,192.8088,-56.9671
192.8088,193.0086,-57.2377
193.0086,193.2084,-57.4662
193.2084,193.4083,-57.4944
193.4083,193.6081,-57.2412
193.6081,193.808,-56.7627
193.808,194.0078,-56.251
194.0078,194.2077,-55.9503
194.2077,194.4075,-56.0116
194.4075,194.6073,-56.3594
194.6073,194.8072,-56.6563
194.8072,195.007,-56.4232
195.007,195.2069,-55.2956
195.2069,195.4067,-53.2332
195.4067,195.6066,-50.6617
195.6066,195.8064,-48.3359
195.8064,196.0062,-47.0435
196.0062,196.2061,-47.2713



//TRACE,Optical Spectrum,Input 1 (Run 14) 
//Parameterized
#Frequency,Power
#(THz),(dBm)
191.6,1.3409
191.9,2.5306
192.1,3.1235
193.3,2.8199
194.8,3.619
195.5,9.6187

//NoiseBins
#LowerFrequency,UpperFrequency,Power
#(THz),(THz),(dBm)
191.6097,191.8095,-58.2054
191.8095,192.0094,-57.4063
192.0094,192.2092,-56.7893
192.2092,192.4091,-56.4207
192.4091,192.6089,-56.3244
192.6089,192.8088,-56.4604
192.8088,193.0086,-56.7167
193.0086,193.2084,-56.9304
193.2084,193.4083,-56.9418
193.4083,193.6081,-56.6691
193.6081,193.808,-56.1696
193.808,194.0078,-55.6372
194.0078,194.2077,-55.3183
194.2077,194.4075,-55.3641
194.4075,194.6073,-55.6953
194.6073,194.8072,-55.9682
194.8072,195.007,-55.6968
195.007,195.2069,-54.5134
195.2069,195.4067,-52.3797
195.4067,195.6066,-49.7324
195.6066,195.8064,-47.343
195.8064,196.0062,-46.0156
196.0062,196.2061,-46.2474



//TRACE,Optical Spectrum,Input 1 (Run 15) 
//Parameterized
#Frequency,Power
#(THz),(dBm)
191.7,1.985
191.8,2.3936
191.9,2.7686
192,3.0995
192.5,3.8296
192.8,3.5525
192.9,3.4093
193.5,3.3761
193.6,3.5957
193.7,3.8555
194.1,4.6963
194.6,4.1169
195,4.6708
195.1,5.3694
195.2,6.3234
195.3,7.4845
195.5,10.146

//NoiseBins
#LowerFrequency,UpperFrequency,Power
#(THz),(THz),(dBm)
191.6097,191.8095,-57.9802
191.8095,192.0094,-57.1649
192.0094,192.2092,-56.5332
192.2092,192.4091,-56.1517
192.4091,192.6089,-56.0447
192.6089,192.8088,-56.1717
192.8088,193.0086,-56.4199
193.0086,193.2084,-56.6252
193.2084,193.4083,-56.627
193.4083,193.6081,-56.3432
193.6081,193.808,-55.8316
193.808,194.0078,-55.2874
194.0078,194.2077,-54.9583
194.2077,194.4075,-54.9952
194.4075,194.6073,-55.317
194.6073,194.8072,-55.5763
194.8072,195.007,-55.2831
195.007,195.2069,-54.0678
195.2069,195.4067,-51.8933
195.4067,195.6066,-49.2028
195.6066,195.8064,-46.777
195.8064,196.0062,-45.4297
196.0062,196.2061,-45.6636



//TRACE,Optical Spectrum,Input 1 (Run 16) 
//Parameterized
#Frequency,Power
#(THz),(dBm)
191.7,1.2258
191.9,1.9527
192,2.2569
192.1,2.5091
192.2,2.7008
192.3,2.8273
192.5,2.8803
192.6,2.8151
192.8,2.5589
192.9,2.4024
193,2.2545
193.5,2.2708
193.6,2.4697
193.7,2.7082
193.8,2.9593
193.9,3.19
194,3.3689
194.1,3.4717
194.2,3.4795
194.3,3.3931
194.4,3.226
194.5,3.0168
194.8,2.6534
194.9,2.8225
195,3.2157
195.2,4.7408
195.3,5.8281
195.4,7.0576
195.5,8.3387
195.6,9.5697
195.7,10.6435
195.8,11.4613

//NoiseBins
#LowerFrequency,UpperFrequency,Power
#(THz),(THz),(dBm)
191.6097,191.8095,-58.7526
191.8095,192.0094,-57.9928
192.0094,192.2092,-57.4117
192.2092,192.4091,-57.0742
192.4091,192.6089,-57.0039
192.6089,192.8088,-57.1619
192.8088,193.0086,-57.438
193.0086,193.2084,-57.6721
193.2084,193.4083,-57.7068
193.4083,193.6081,-57.4611
193.6081,193.808,-56.9907
193.808,194.0078,-56.4869
194.0078,194.2077,-56.1931
194.2077,194.4075,-56.2604
194.4075,194.6073,-56.6146
194.6073,194.8072,-56.9207
194.8072,195.007,-56.7024
195.007,195.2069,-55.5962
195.2069,195.4067,-53.5611
195.4067,195.6066,-51.0186
195.6066,195.8064,-48.7172
195.8064,196.0062,-47.4382
196.0062,196.2061,-47.6645



//TRACE,Optical Spectrum,Input 1 (Run 17) 
//Parameterized
#Frequency,Power
#(THz),(dBm)
191.6,1.0514
191.7,1.4623
191.8,1.851
191.9,2.2068
192,2.5194
192.1,2.7793
192.2,2.9783
192.3,3.1115
192.4,3.1766
192.5,3.176
192.6,3.1157
192.7,3.0083
192.8,2.8684
192.9,2.716
193,2.5724
193.1,2.4588
193.2,2.3954
193.3,2.3965
193.4,2.471
193.5,2.6151
193.6,2.8204
193.7,3.0656
193.9,3.5603
194,3.745
194.1,3.8532
194.2,3.8659
194.3,3.784
194.4,3.6215
194.5,3.4173
194.6,3.2179
194.7,3.0832
194.8,3.0781
194.9,3.2601
195,3.669
195.1,4.3266
195.2,5.2338
195.3,6.3441
195.4,7.5973
195.5,8.9017
195.6,10.1541
195.7,11.2461
195.8,12.0776

//NoiseBins
#LowerFrequency,UpperFrequency,Power
#(THz),(THz),(dBm)
191.6097,191.8095,-58.5118
191.8095,192.0094,-57.7347
192.0094,192.2092,-57.1378
192.2092,192.4091,-56.7866
192.4091,192.6089,-56.7049
192.6089,192.8088,-56.8532
192.8088,193.0086,-57.1206
193.0086,193.2084,-57.3457
193.2084,193.4083,-57.3701
193.4083,193.6081,-57.1126
193.6081,193.808,-56.6294
193.808,194.0078,-56.113
194.0078,194.2077,-55.8082
194.2077,194.4075,-55.866
194.4075,194.6073,-56.2101
194.6073,194.8072,-56.5015
194.8072,195.007,-56.2599
195.007,195.2069,-55.1198
195.2069,195.4067,-53.0413
195.4067,195.6066,-50.4528
195.6066,195.8064,-48.1128
195.8064,196.0062,-46.8125
196.0062,196.2061,-47.0411



//TRACE,Optical Spectrum,Input 1 (Run 18) 
//Parameterized
#Frequency,Power
#(THz),(dBm)
192.2,3.2157
193.1,2.7345
193.2,2.6753
193.8,3.6346
194.3,4.1184
194.6,3.5658
195.5,9.3833

//NoiseBins
#LowerFrequency,UpperFrequency,Power
#(THz),(THz),(dBm)
191.6097,191.8095,-58.306
191.8095,192.0094,-57.5141
